0.05
0.213888888888889
1.02777777777778
1.83888888888889
2.62777777777778
3.41944444444444
4.20833333333333
5.025
5.67777777777778
6.67222222222222
7.51666666666667
8.32777777777778
9.11666666666667
9.88888888888889
10.7277777777778
11.5833333333333
12.4055555555556
13.2333333333333
14.0555555555556
14.85
15.6472222222222
16.4388888888889
17.2611111111111
18.1305555555556
18.9527777777778
19.7388888888889
20.5305555555556
21.3055555555556
22.0916666666667
22.9027777777778
23.7194444444444
24.5472222222222
25.3916666666667
26.1972222222222
26.9722222222222
27.7722222222222
28.5611111111111
29.4194444444444
30.2611111111111
31.0861111111111
31.8888888888889
32.725
33.5166666666667
34.3055555555556
35.125
35.9694444444444
36.85
37.6722222222222
38.45
39.2527777777778
40.0638888888889
40.8611111111111
41.6972222222222
42.5277777777778
43.3527777777778
44.1638888888889
44.9527777777778
45.7333333333333
46.5416666666667
47.3833333333333
48.2166666666667
49.0472222222222
49.8527777777778
50.6305555555556
51.4277777777778
52.2083333333333
53
53.8555555555556
54.7027777777778
55.525
56.3083333333333
57.0944444444444
57.8805555555556
58.6972222222222
59.5083333333333
60.3583333333333
61.1916666666667
62.0027777777778
62.7861111111111
63.5583333333333
64.3444444444444
65.1472222222222
65.9888888888889
66.8138888888889
67.625
68.4027777777778
69.2027777777778
69.9916666666667
70.7916666666667
71.6083333333333
72.4666666666667
73.2972222222222
74.0833333333333
74.8666666666667
75.6583333333333
76.4888888888889
77.3138888888889
78.1444444444444
78.975
79.7972222222222
80.5944444444444
81.3722222222222
82.1666666666667
82.9805555555556
83.8388888888889
84.6861111111111
85.4972222222222
86.2916666666667
87.0777777777778
87.875
88.6861111111111
89.5111111111111
90.3583333333333
91.2111111111111
92.0194444444444
92.7861111111111
93.5861111111111
94.3888888888889
95.2055555555555
96.0416666666667
96.8611111111111
97.6888888888889
98.4861111111111
99.2666666666667
100.044444444444
100.858333333333
101.680555555556
102.544444444444
103.375
104.163888888889
104.95
105.752777777778
106.544444444444
107.363888888889
108.194444444444
109.033333333333
109.852777777778
110.625
111.377777777778
112.172222222222
112.991666666667
113.805555555556
114.641666666667
115.463888888889
116.247222222222
116.991666666667
117.822222222222
118.602777777778
119.433333333333
120.297222222222
121.119444444444
121.922222222222
122.7
123.486111111111
124.286111111111
125.083333333333
125.897222222222
126.744444444444
127.569444444444
128.344444444444
129.105555555556
129.886111111111
130.658333333333
131.483333333333
132.311111111111
133.108333333333
133.894444444444
134.683333333333
135.461111111111
136.222222222222
137.008333333333
137.827777777778
138.675
139.483333333333
140.252777777778
141.030555555556
141.822222222222
142.608333333333
143.405555555556
144.225
145.044444444444
145.85
146.622222222222
147.397222222222
148.169444444444
148.975
149.786111111111
150.608333333333
151.408333333333
152.177777777778
152.955555555556
153.730555555556
154.513888888889
155.3
156.130555555556
156.95
157.733333333333
158.486111111111
159.258333333333
160.041666666667
160.833333333333
161.644444444444
162.472222222222
163.3
164.102777777778
164.872222222222
165.641666666667
166.441666666667
167.261111111111
168.097222222222
168.936111111111
169.736111111111
170.530555555556
171.333333333333
172.119444444444
172.908333333333
173.741666666667
174.588888888889
175.427777777778
176.216666666667
176.975
177.772222222222
178.577777777778
179.391666666667
180.211111111111
181.038888888889
181.844444444444
182.638888888889
183.416666666667
184.186111111111
185.011111111111
185.533333333333
186.472222222222
187.316666666667
188.133333333333
188.908333333333
189.727777777778
190.538888888889
191.35
192.197222222222
193.063888888889
193.877777777778
194.647222222222
195.436111111111
196.230555555556
197.058333333333
197.888888888889
198.719444444444
199.569444444444
200.383333333333
201.158333333333
201.952777777778
202.772222222222
203.613888888889
204.475
205.308333333333
206.1
206.897222222222
207.686111111111
208.294444444444
209.255555555556
210.088888888889
210.927777777778
211.758333333333
212.541666666667
213.291666666667
214.094444444444
214.905555555556
215.730555555556
216.538888888889
217.363888888889
218.163888888889
218.955555555556
219.722222222222
220.516666666667
221.358333333333
222.197222222222
223.027777777778
223.841666666667
224.633333333333
225.422222222222
226.219444444444
227.027777777778
227.861111111111
228.708333333333
229.544444444444
230.352777777778
231.136111111111
231.922222222222
232.761111111111
233.619444444444
234.463888888889
235.302777777778
236.138888888889
236.952777777778
237.722222222222
238.527777777778
239.363888888889
240.216666666667
241.055555555556
241.886111111111
242.677777777778
243.477777777778
244.280555555556
245.088888888889
245.916666666667
246.761111111111
247.597222222222
248.391666666667
249.175
249.966666666667
250.794444444444
251.638888888889
252.458333333333
253.305555555556
254.113888888889
254.891666666667
255.683333333333
256.494444444444
257.313888888889
258.177777777778
259.016666666667
259.816666666667
260.622222222222
261.394444444444
262.208333333333
263.036111111111
263.877777777778
264.716666666667
265.572222222222
266.369444444444
267.141666666667
267.916666666667
268.738888888889
269.583333333333
270.411111111111
271.233333333333
272.044444444444
272.855555555556
273.633333333333
274.413888888889
275.233333333333
276.061111111111
276.608333333333
277.583333333333
278.383333333333
279.155555555556
279.947222222222
280.752777777778
281.558333333333
282.369444444444
283.169444444444
283.983333333333
284.766666666667
285.536111111111
286.316666666667
287.141666666667
287.969444444444
288.788888888889
289.613888888889
290.402777777778
291.194444444444
291.994444444444
292.797222222222
293.630555555556
294.486111111111
295.316666666667
296.111111111111
296.894444444444
297.663888888889
298.480555555556
299.305555555556
300.125
300.95
301.786111111111
302.572222222222
303.330555555556
304.127777777778
304.922222222222
305.766666666667
306.594444444444
307.425
308.230555555556
309.011111111111
309.788888888889
310.583333333333
311.411111111111
312.236111111111
313.083333333333
313.888888888889
314.669444444444
315.45
316.25
317.061111111111
317.855555555556
318.655555555556
319.444444444444
320.222222222222
320.963888888889
321.708333333333
322.455555555556
323.247222222222
324.038888888889
324.830555555556
325.591666666667
326.372222222222
327.127777777778
327.9
328.675
329.463888888889
330.308333333333
331.152777777778
331.969444444444
332.752777777778
333.547222222222
334.377777777778
335.211111111111
336.083333333333
336.944444444444
337.788888888889
338.580555555556
339.361111111111
340.166666666667
340.972222222222
341.805555555556
342.666666666667
343.511111111111
344.266666666667
345.058333333333
345.852777777778
346.597222222222
347.388888888889
348.208333333333
349.022222222222
349.794444444444
350.563888888889
351.322222222222
352.072222222222
352.847222222222
353.647222222222
354.452777777778
355.255555555556
355.791666666667
356.730555555556
357.494444444444
358.216666666667
358.972222222222
359.775
360.55
361.269444444444
361.994444444444
362.688888888889
363.383333333333
364.091666666667
364.794444444444
365.511111111111
366.252777777778
367.005555555556
367.725
368.413888888889
369.119444444444
369.811111111111
370.527777777778
371.283333333333
372.036111111111
372.769444444444
373.508333333333
374.269444444444
374.972222222222
375.675
376.4
377.166666666667
377.947222222222
378.75
379.527777777778
380.275
381.027777777778
381.802777777778
382.580555555556
383.355555555556
384.177777777778
384.994444444444
385.8
386.566666666667
387.333333333333
388.108333333333
388.913888888889
389.727777777778
390.552777777778
391.336111111111
392.088888888889
392.841666666667
393.566666666667
394.286111111111
395.019444444444
395.775
396.519444444444
397.25
397.958333333333
398.652777777778
399.35
400.069444444444
400.794444444444
401.547222222222
402.311111111111
403.086111111111
403.836111111111
404.575
405.283333333333
406.027777777778
406.791666666667
407.602777777778
408.369444444444
409.138888888889
409.902777777778
410.644444444444
411.386111111111
412.119444444444
412.880555555556
413.655555555556
414.455555555556
415.244444444444
416.022222222222
416.75
417.508333333333
418.263888888889
419.025
419.783333333333
420.575
421.388888888889
422.15
422.880555555556
423.638888888889
424.391666666667
425.186111111111
426.005555555556
426.788888888889
427.561111111111
428.313888888889
429.083333333333
429.836111111111
430.580555555556
431.363888888889
432.188888888889
432.958333333333
433.7
434.430555555556
435.133333333333
435.85
436.577777777778
437.305555555556
438.041666666667
438.777777777778
439.536111111111
440.247222222222
440.916666666667
441.594444444444
442.291666666667
442.997222222222
443.716666666667
444.447222222222
445.166666666667
445.852777777778
446.541666666667
447.236111111111
447.927777777778
448.608333333333
449.344444444444
450.097222222222
450.855555555556
451.591666666667
452.319444444444
453.036111111111
453.783333333333
454.525
455.275
456.061111111111
456.836111111111
457.586111111111
458.308333333333
459.016666666667
459.719444444444
460.433333333333
461.2
461.947222222222
462.694444444444
463.447222222222
464.197222222222
464.919444444444
465.669444444444
466.422222222222
467.197222222222
468.011111111111
468.844444444444
469.65
470.413888888889
471.191666666667
471.963888888889
472.780555555556
473.597222222222
474.219444444444
475.205555555556
476.030555555556
476.811111111111
477.558333333333
478.330555555556
479.113888888889
479.933333333333
480.741666666667
481.530555555556
482.302777777778
483.075
483.822222222222
484.586111111111
485.380555555556
486.175
487.008333333333
487.8
488.547222222222
489.291666666667
490.075
490.827777777778
491.597222222222
492.355555555556
493.119444444444
493.880555555556
494.608333333333
495.322222222222
496.05
496.780555555556
497.547222222222
498.3
499.061111111111
499.797222222222
500.505555555556
501.230555555556
501.958333333333
502.677777777778
503.433333333333
504.230555555556
505.030555555556
505.788888888889
506.536111111111
507.288888888889
508.044444444444
508.836111111111
509.652777777778
510.494444444444
511.308333333333
512.113888888889
512.913888888889
513.702777777778
514.480555555556
515.305555555556
516.188888888889
517.047222222222
517.855555555556
518.658333333333
519.458333333333
520.252777777778
521.047222222222
521.866666666667
522.719444444444
523.558333333333
524.341666666667
525.119444444444
525.916666666667
526.733333333333
527.580555555556
528.411111111111
529.247222222222
530.055555555556
530.866666666667
531.652777777778
532.427777777778
533.269444444444
534.113888888889
534.930555555556
535.727777777778
536.516666666667
537.286111111111
538.063888888889
538.872222222222
539.669444444444
540.483333333333
541.3
542.1
542.85
543.613888888889
544.383333333333
545.188888888889
546
546.797222222222
547.588888888889
548.372222222222
549.125
549.861111111111
550.622222222222
551.4
552.197222222222
552.986111111111
553.758333333333
554.497222222222
555.261111111111
556.002777777778
556.761111111111
557.538888888889
558.313888888889
559.086111111111
559.847222222222
560.572222222222
561.297222222222
562.052777777778
562.816666666667
563.6
564.394444444444
565.188888888889
565.947222222222
566.725
567.497222222222
568.261111111111
569.038888888889
569.883333333333
570.719444444444
571.491666666667
572.266666666667
573.022222222222
573.797222222222
574.566666666667
575.361111111111
576.169444444444
577.011111111111
577.788888888889
578.547222222222
579.3
580.061111111111
580.833333333333
581.644444444444
582.452777777778
583.258333333333
584.044444444444
584.816666666667
585.580555555556
586.347222222222
587.122222222222
587.927777777778
588.752777777778
589.522222222222
590.283333333333
591.047222222222
591.827777777778
592.572222222222
593.35
594.15
594.947222222222
595.736111111111
596.494444444444
597.236111111111
598
598.786111111111
599.583333333333
600.391666666667
601.197222222222
601.972222222222
602.75
603.522222222222
604.297222222222
605.066666666667
605.894444444444
606.711111111111
607.508333333333
608.255555555556
609.016666666667
609.802777777778
610.591666666667
611.383333333333
612.197222222222
613.030555555556
613.825
614.588888888889
615.352777777778
616.122222222222
616.891666666667
617.708333333333
618.516666666667
619.308333333333
620.075
620.852777777778
621.619444444444
622.352777777778
623.133333333333
623.947222222222
624.763888888889
625.541666666667
626.311111111111
627.063888888889
627.844444444444
628.6
629.369444444444
630.175
630.955555555556
631.741666666667
632.505555555556
633.263888888889
633.994444444444
634.766666666667
635.577777777778
636.372222222222
637.155555555556
637.944444444444
638.711111111111
639.483333333333
640.236111111111
641.002777777778
641.827777777778
642.658333333333
643.438888888889
644.202777777778
644.972222222222
645.719444444444
646.477777777778
647.266666666667
648.058333333333
648.855555555556
649.652777777778
650.419444444444
651.152777777778
651.9
652.663888888889
653.469444444444
654.297222222222
655.077777777778
655.855555555556
656.638888888889
657.4
658.130555555556
658.902777777778
659.708333333333
660.508333333333
661.305555555556
662.063888888889
662.805555555556
663.566666666667
664.325
665.091666666667
665.880555555556
666.655555555556
667.405555555556
668.169444444444
668.913888888889
669.625
670.327777777778
671.077777777778
671.819444444444
672.538888888889
673.258333333333
673.977777777778
674.663888888889
675.366666666667
676.077777777778
676.786111111111
677.522222222222
678.308333333333
679.058333333333
679.802777777778
680.511111111111
681.238888888889
681.986111111111
682.752777777778
683.513888888889
684.311111111111
685.130555555556
685.930555555556
686.669444444444
687.413888888889
688.172222222222
688.936111111111
689.722222222222
690.516666666667
691.327777777778
692.105555555556
692.869444444444
693.627777777778
694.411111111111
695.202777777778
695.994444444444
696.827777777778
697.666666666667
698.447222222222
699.194444444444
699.983333333333
700.791666666667
701.622222222222
702.411111111111
703.219444444444
704.044444444444
704.836111111111
705.583333333333
706.338888888889
707.180555555556
708.030555555556
708.805555555556
709.591666666667
710.383333333333
711.186111111111
711.930555555556
712.7
713.5
714.325
715.108333333333
715.861111111111
716.572222222222
717.294444444444
717.994444444444
718.713888888889
719.458333333333
720.222222222222
720.947222222222
721.697222222222
722.433333333333
723.15
723.847222222222
724.588888888889
725.366666666667
726.158333333333
726.916666666667
727.688888888889
728.447222222222
729.211111111111
729.969444444444
730.727777777778
731.527777777778
732.336111111111
733.141666666667
733.936111111111
734.719444444444
735.477777777778
736.283333333333
737.094444444444
737.919444444444
738.741666666667
739.55
740.355555555556
741.152777777778
741.941666666667
742.708333333333
743.552777777778
744.383333333333
745.166666666667
745.955555555556
746.730555555556
747.505555555556
748.288888888889
749.080555555556
749.888888888889
750.713888888889
751.527777777778
752.280555555556
753.038888888889
753.805555555556
754.6
755.422222222222
756.233333333333
757.036111111111
757.886111111111
758.675
759.427777777778
760.208333333333
761.019444444444
761.844444444444
762.666666666667
763.477777777778
764.252777777778
765.008333333333
765.752777777778
766.525
767.319444444444
768.1
768.9
769.727777777778
770.522222222222
771.247222222222
772.008333333333
772.808333333333
773.661111111111
774.483333333333
775.272222222222
776.061111111111
776.6
777.55
778.358333333333
779.197222222222
780.038888888889
780.861111111111
781.672222222222
782.45
783.208333333333
783.977777777778
784.758333333333
785.558333333333
786.377777777778
787.191666666667
787.977777777778
788.733333333333
789.488888888889
790.252777777778
791.05
791.869444444444
792.675
793.480555555556
794.266666666667
795.027777777778
795.794444444444
796.563888888889
797.363888888889
798.202777777778
799.041666666667
799.844444444444
800.625
801.405555555556
802.2
802.988888888889
803.813888888889
804.630555555556
805.475
806.269444444444
807.05
807.813888888889
808.636111111111
809.463888888889
810.266666666667
811.083333333333
811.891666666667
812.683333333333
813.455555555556
814.230555555556
815.030555555556
815.866666666667
816.697222222222
817.488888888889
818.280555555556
819.047222222222
819.838888888889
820.613888888889
821.436111111111
822.258333333333
823.108333333333
823.919444444444
824.691666666667
825.469444444444
826.25
827.05
827.866666666667
828.705555555556
829.519444444444
830.333333333333
831.127777777778
831.897222222222
832.655555555556
833.475
834.333333333333
835.172222222222
835.944444444444
836.694444444444
837.483333333333
838.280555555556
839.063888888889
839.852777777778
840.677777777778
841.519444444444
842.333333333333
843.063888888889
843.813888888889
844.625
845.447222222222
846.219444444444
847.008333333333
847.808333333333
848.602777777778
849.191666666667
850.097222222222
850.936111111111
851.780555555556
852.619444444444
853.427777777778
854.205555555556
854.847222222222
855.727777777778
856.525
857.291666666667
858.088888888889
858.933333333333
859.763888888889
860.5
861.255555555556
862.033333333333
862.85
863.65
864.441666666667
865.244444444444
866.063888888889
866.838888888889
867.575
868.347222222222
868.958333333333
869.980555555556
870.855555555556
871.688888888889
872.472222222222
873.258333333333
874.066666666667
874.866666666667
875.680555555556
876.502777777778
877.341666666667
878.155555555556
878.930555555556
879.702777777778
880.5
881.294444444444
882.111111111111
882.736111111111
883.736111111111
884.55
885.358333333333
886.141666666667
886.730555555556
887.738888888889
888.622222222222
889.458333333333
890.258333333333
891.072222222222
891.866666666667
892.697222222222
893.508333333333
894.355555555556
895.208333333333
896.036111111111
896.822222222222
897.605555555556
898.402777777778
899.25
900.122222222222
900.944444444444
901.780555555556
902.580555555556
903.375
904.152777777778
904.95
905.8
906.652777777778
907.494444444444
908.294444444444
909.1
909.905555555556
910.716666666667
911.525
912.366666666667
913.202777777778
914.044444444444
914.830555555556
915.608333333333
916.422222222222
917.266666666667
918.122222222222
918.941666666667
919.788888888889
920.586111111111
921.4
922.191666666667
922.997222222222
923.855555555556
924.713888888889
925.552777777778
926.330555555556
927.133333333333
927.933333333333
928.744444444444
929.563888888889
930.397222222222
931.244444444444
932.063888888889
932.841666666667
933.611111111111
934.402777777778
935.219444444444
936.052777777778
936.891666666667
937.697222222222
938.505555555556
939.291666666667
940.088888888889
940.888888888889
941.736111111111
942.575
943.427777777778
944.238888888889
945.013888888889
945.811111111111
946.611111111111
947.430555555556
948.275
949.122222222222
949.927777777778
950.738888888889
951.519444444444
952.283333333333
953.097222222222
953.913888888889
954.736111111111
955.541666666667
956.330555555556
957.1
957.897222222222
958.691666666667
959.486111111111
960.338888888889
961.158333333333
961.966666666667
962.766666666667
963.344444444444
964.297222222222
965.15
965.997222222222
966.841666666667
967.686111111111
968.494444444444
969.261111111111
970.058333333333
970.838888888889
971.677777777778
972.533333333333
973.361111111111
974.144444444444
974.944444444444
975.736111111111
976.336111111111
977.280555555556
978.097222222222
978.933333333333
979.752777777778
980.516666666667
981.269444444444
982.075
982.866666666667
983.688888888889
984.516666666667
985.325
986.152777777778
986.95
987.719444444444
988.494444444444
989.347222222222
990.175
990.994444444444
991.791666666667
992.575
993.361111111111
994.166666666667
994.961111111111
995.783333333333
996.633333333333
997.461111111111
998.236111111111
998.983333333333
999.730555555556
1000.50555555556
1001.30833333333
1002.11944444444
1002.91944444444
1003.73055555556
1004.51388888889
1005.26111111111
1006.00555555556
1006.80833333333
1007.58888888889
1008.40555555556
1009.21666666667
1010.01666666667
1010.77222222222
1011.55
1012.35
1013.13888888889
1013.95
1014.80555555556
1015.66666666667
1016.42777777778
1017.19722222222
1018.00555555556
1018.82777777778
1019.61944444444
1020.45277777778
1021.31666666667
1022.11111111111
1022.90833333333
1023.69722222222
1024.51111111111
1025.30277777778
1026.13888888889
1026.98333333333
1027.80555555556
1028.55277777778
1029.325
1030.11666666667
1030.91944444444
1031.68333333333
1032.50833333333
1033.35277777778
1034.16388888889
1034.88055555556
1035.65
1036.45277777778
1037.3
1038.08888888889
1038.88888888889
1039.73055555556
1040.54166666667
1041.26388888889
1042.01111111111
1042.81111111111
1043.65277777778
1044.43888888889
1045.24166666667
1046.04444444444
1046.83611111111
1047.44722222222
1048.34444444444
1049.16666666667
1050.01388888889
1050.85555555556
1051.68888888889
1052.46111111111
1053.21944444444
1053.99722222222
1054.80833333333
1055.61944444444
1056.42222222222
1057.25
1058.05
1058.81388888889
1059.58888888889
1060.34444444444
1061.15
1061.96666666667
1062.79722222222
1063.59722222222
1064.39722222222
1065.15833333333
1065.95277777778
1066.74166666667
1067.54722222222
1068.37222222222
1069.20833333333
1070.01388888889
1070.79722222222
1071.57777777778
1072.36111111111
1073.19166666667
1074.025
1074.83611111111
1075.66944444444
1076.48055555556
1077.25277777778
1078.01111111111
1078.81388888889
1079.64166666667
1080.49722222222
1081.325
1082.11944444444
1082.94444444444
1083.74722222222
1084.53888888889
1085.36111111111
1086.21944444444
1087.06666666667
1087.89166666667
1088.67777777778
1089.45555555556
1090.25833333333
1091.05555555556
1091.88055555556
1092.71388888889
1093.53888888889
1094.325
1095.11944444444
1095.88611111111
1096.66944444444
1097.48888888889
1098.33611111111
1099.15833333333
1099.96944444444
1100.74444444444
1101.53611111111
1102.34722222222
1103.14722222222
1103.70833333333
1104.73333333333
1105.575
1106.37222222222
1107.13611111111
1107.925
1108.71944444444
1109.54444444444
1110.36111111111
1111.175
1112.00277777778
1112.775
1113.54722222222
1114.34166666667
1115.14722222222
1115.99166666667
1116.83611111111
1117.66944444444
1118.46111111111
1119.25833333333
1120.04166666667
1120.85833333333
1121.67777777778
1122.5
1123.34166666667
1124.15833333333
1124.94444444444
1125.70833333333
1126.50833333333
1127.32222222222
1128.14166666667
1128.95833333333
1129.76388888889
1130.56944444444
1131.35555555556
1132.10833333333
1132.91388888889
1133.75277777778
1134.58888888889
1135.40555555556
1136.19444444444
1136.98333333333
1137.76944444444
1138.55833333333
1139.38055555556
1140.21388888889
1141.05833333333
1141.86388888889
1142.64444444444
1143.42222222222
1144.20833333333
1145.01666666667
1145.86666666667
1146.71111111111
1147.525
1148.33888888889
1149.14444444444
1149.91388888889
1150.69166666667
1151.50277777778
1152.35277777778
1153.175
1153.97222222222
1154.73055555556
1155.53888888889
1156.31944444444
1157.09722222222
1157.91388888889
1158.75555555556
1159.56944444444
1160.35555555556
1161.12777777778
1161.89722222222
1162.71388888889
1163.51666666667
1164.31944444444
1165.14722222222
1165.95833333333
1166.72777777778
1167.50555555556
1168.28611111111
1169.09166666667
1169.925
1170.76111111111
1171.57222222222
1172.20555555556
1173.11111111111
1173.89722222222
1174.49444444444
1175.45555555556
1176.28333333333
1177.13055555556
1177.95555555556
1178.71944444444
1179.48888888889
1180.25833333333
1181.07777777778
1181.91944444444
1182.74444444444
1183.55
1184.38888888889
1185.16944444444
1185.93888888889
1186.73611111111
1187.56388888889
1188.40833333333
1189.24722222222
1190.03611111111
1190.82777777778
1191.64444444444
1192.43333333333
1193.21666666667
1194.075
1194.90277777778
1195.75
1196.53888888889
1197.31666666667
1198.09722222222
1198.93055555556
1199.75
1200.58055555556
1201.41388888889
1202.21944444444
1203.00555555556
1203.78888888889
1204.57777777778
1205.11388888889
1206.14166666667
1206.98055555556
1207.80555555556
1208.6
1209.36111111111
1210.16111111111
1210.975
1211.525
1212.53333333333
1213.38611111111
1214.21666666667
1215
1215.78333333333
1216.56944444444
1217.41111111111
1218.25
1219.06944444444
1219.88333333333
1220.70555555556
1221.5
1222.28333333333
1223.08888888889
1223.95
1224.81666666667
1225.63888888889
1226.43888888889
1227.26111111111
1228.08055555556
1228.90555555556
1229.50833333333
1230.53333333333
1231.4
1232.23888888889
1233.02222222222
1233.81944444444
1234.64722222222
1235.29166666667
1236.27777777778
1237.11666666667
1237.93888888889
1238.74444444444
1239.51666666667
1240.29722222222
1241.11111111111
1241.95555555556
1242.78333333333
1243.59722222222
1244.38888888889
1245.17777777778
1245.96666666667
1246.76111111111
1247.60277777778
1248.44722222222
1249.3
1250.10555555556
1250.90277777778
1251.68611111111
1252.48611111111
1253.31388888889
1254.16944444444
1255.01388888889
1255.83611111111
1256.63888888889
1257.43888888889
1258.21944444444
1259.02777777778
1259.84722222222
1260.7
1261.53888888889
1262.34444444444
1262.91944444444
1263.88055555556
1264.70277777778
1265.52222222222
1266.35555555556
1267.19166666667
1268.01944444444
1268.80833333333
1269.56944444444
1270.36944444444
1271.20555555556
1272.04722222222
1272.68888888889
1273.67777777778
1274.48888888889
1275.28611111111
1276.05555555556
1276.84444444444
1277.68333333333
1278.54166666667
1279.36388888889
1280.16111111111
1280.96666666667
1281.75833333333
1282.55833333333
1283.37222222222
1284.20555555556
1285.05833333333
1285.88611111111
1286.65833333333
1287.44722222222
1288.23611111111
1289.025
1289.89166666667
1290.73333333333
1291.55555555556
1292.38055555556
1293.16111111111
1293.94444444444
1294.73333333333
1295.56666666667
1296.40833333333
1297.25
1298.07777777778
1298.85833333333
1299.66111111111
1300.45555555556
1301.275
1302.11666666667
1302.95833333333
1303.78611111111
1304.61111111111
1305.39444444444
1306.19444444444
1307.02777777778
1307.88055555556
1308.71944444444
1309.56666666667
1310.35277777778
1311.16388888889
1311.95555555556
1312.74722222222
1313.575
1314.44722222222
1315.27222222222
1316.08888888889
1316.87222222222
1317.67222222222
1318.47777777778
1319.28333333333
1320.10277777778
1320.96388888889
1321.80833333333
1322.6
1323.38055555556
1324.18055555556
1325
1325.85277777778
1326.67777777778
1327.49444444444
1328.31944444444
1329.11111111111
1329.88055555556
1330.66666666667
1331.47777777778
1332.31388888889
1333.14166666667
1333.93888888889
1334.70555555556
1335.49722222222
1336.26944444444
1337.05555555556
1337.89166666667
1338.725
1339.55277777778
1340.34722222222
1341.11388888889
1341.86388888889
1342.63888888889
1343.42777777778
1344.25
1345.05555555556
1345.85277777778
1346.62777777778
1347.425
1348.2
1349.00277777778
1349.83055555556
1350.70277777778
1351.54444444444
1352.34444444444
1353.13611111111
1353.95277777778
1354.775
1355.60555555556
1356.44444444444
1357.31944444444
1358.14166666667
1358.92777777778
1359.71388888889
1360.52222222222
1361.36111111111
1362.20277777778
1363.04166666667
1363.87222222222
1364.68611111111
1365.47222222222
1366.25
1367.06944444444
1367.90277777778
1368.75
1369.57222222222
1370.38888888889
1371.175
1371.98333333333
1372.775
1373.58611111111
1374.41388888889
1375.23611111111
1376.02777777778
1376.80277777778
1377.56666666667
1378.33611111111
1379.16388888889
1379.75555555556
1380.76111111111
1381.6
1382.4
1383.18055555556
1383.97222222222
1384.76944444444
1385.58888888889
1386.42777777778
1387.26944444444
1388.05833333333
1388.85277777778
1389.63333333333
1390.41388888889
1391.24166666667
1392.06944444444
1392.91111111111
1393.73611111111
1394.55277777778
1395.32222222222
1396.11388888889
1396.91111111111
1397.75277777778
1398.6
1399.42777777778
1400.22222222222
1401.03333333333
1401.81666666667
1402.6
1403.40833333333
1404.24444444444
1405.08333333333
1405.90277777778
1406.66111111111
1407.44166666667
1408.24722222222
1409.04444444444
1409.86666666667
1410.70833333333
1411.55277777778
1412.375
1413.17777777778
1413.94166666667
1414.775
1415.61944444444
1416.45277777778
1417.27777777778
1418.11111111111
1418.9
1419.70277777778
1420.475
1421.27777777778
1422.13888888889
1422.99166666667
1423.79722222222
1424.58611111111
1425.375
1426.17777777778
1426.99722222222
1427.81666666667
1428.66111111111
1429.52222222222
1430.33055555556
1431.09444444444
1431.87777777778
1432.67222222222
1433.51388888889
1434.36388888889
1435.18611111111
1436.02777777778
1436.85
1437.64722222222
1438.42222222222
1439.24166666667
1440.07222222222
1440.92777777778
1441.74444444444
1442.51944444444
1443.31666666667
1444.11666666667
1444.85833333333
1445.73055555556
1446.57777777778
1447.17222222222
1448.17222222222
1448.96388888889
1449.75833333333
1450.58055555556
1451.41944444444
1452.26388888889
1453.1
1453.93333333333
1454.74444444444
1455.55277777778
1456.33055555556
1457.15833333333
1458.02777777778
1458.88333333333
1459.7
1460.5
1461.28888888889
1462.09722222222
1462.90555555556
1463.725
1464.56388888889
1465.41388888889
1466.21666666667
1466.99444444444
1467.78333333333
1468.58055555556
1469.41944444444
1470.25833333333
1471.10833333333
1471.93611111111
1472.75277777778
1473.53055555556
1474.33888888889
1475.15833333333
1475.99444444444
1476.85555555556
1477.68611111111
1478.49166666667
1479.28888888889
1480.07777777778
1480.89166666667
1481.71111111111
1482.55277777778
1483.36666666667
1484.18611111111
1484.97777777778
1485.75833333333
1486.55833333333
1487.38611111111
1488.24444444444
1489.075
1489.9
1490.67777777778
1491.47222222222
1492.25555555556
1493.06944444444
1493.91666666667
1494.76388888889
1495.61388888889
1496.40833333333
1497.20277777778
1497.99444444444
1498.81944444444
1499.65
1500.47777777778
1501.31111111111
1502.13333333333
1502.92222222222
1503.70555555556
1504.48888888889
1505.32222222222
1506.18333333333
1507.025
1507.84722222222
1508.65555555556
1509.46388888889
1510.24722222222
1511.06388888889
1511.90277777778
1512.75
1513.59722222222
1514.39444444444
1515.15277777778
1515.94722222222
1516.72777777778
1517.51666666667
1518.33055555556
1518.86666666667
1519.99722222222
1520.78333333333
1521.55
1522.31111111111
1523.15
1523.97777777778
1524.79444444444
1525.60277777778
1526.39444444444
1527.17777777778
1527.97222222222
1528.74444444444
1529.55277777778
1530.42222222222
1531.25833333333
1532.03333333333
1532.81944444444
1533.6
1534.40277777778
1535.22222222222
1536.03888888889
1536.89444444444
1537.74444444444
1538.54444444444
1539.31666666667
1540.10833333333
1540.89722222222
1541.73888888889
1542.56388888889
1543.36944444444
1544.20555555556
1545.00833333333
1545.79444444444
1546.56944444444
1547.37777777778
1548.225
1549.075
1549.89444444444
1550.66111111111
1551.46388888889
1552.25833333333
1553.06111111111
1553.875
1554.70833333333
1555.54722222222
1556.375
1557.15555555556
1557.90555555556
1558.725
1559.54166666667
1560.36666666667
1561.16388888889
1561.96666666667
1562.75277777778
1563.36666666667
1564.28055555556
1565.06388888889
1565.91944444444
1566.75
1567.55555555556
1568.33611111111
1569.11944444444
1569.9
1570.7
1571.50277777778
1572.33611111111
1572.94166666667
1573.93055555556
1574.71944444444
1575.51388888889
1576.05277777778
1577.00277777778
1577.85277777778
1578.68333333333
1579.51111111111
1580.33055555556
1581.12222222222
1581.89444444444
1582.67222222222
1583.49444444444
1584.35
1585.18888888889
1585.99166666667
1586.79444444444
1587.60555555556
1588.41944444444
1589.22777777778
1590.07777777778
1590.91666666667
1591.77777777778
1592.57777777778
1593.35555555556
1594.14722222222
1594.98055555556
1595.63611111111
1596.62777777778
1597.48611111111
1598.29722222222
1599.10555555556
1599.88611111111
1600.68888888889
1601.53055555556
1602.39444444444
1603.22777777778
1604.04444444444
1604.83611111111
1605.625
1606.41666666667
1607.22222222222
1608.05833333333
1608.9
1609.57777777778
1610.52777777778
1611.31666666667
1612.10277777778
1612.91111111111
1613.74166666667
1614.57222222222
1615.39722222222
1616.20555555556
1616.99722222222
1617.76388888889
1618.52222222222
1619.21944444444
1620.10833333333
1620.94166666667
1621.725
1622.49166666667
1623.23055555556
1623.98611111111
1624.73055555556
1625.48611111111
1626.26111111111
1627.03055555556
1627.80833333333
1628.54166666667
1629.23611111111
1629.91944444444
1630.63888888889
1631.38611111111
1632.14444444444
1632.89722222222
1633.64722222222
1634.38055555556
1635.11944444444
1635.84722222222
1636.60277777778
1637.37222222222
1638.18611111111
1639
1639.76666666667
1640.52222222222
1641.28611111111
1642.06388888889
1642.825
1643.62777777778
1644.44166666667
1645.24444444444
1646.03055555556
1646.81388888889
1647.41111111111
1648.29722222222
1649.11944444444
1649.97222222222
1650.77777777778
1651.56388888889
1652.375
1653.13055555556
1653.89444444444
1654.69444444444
1655.53333333333
1656.32777777778
1657.17777777778
1657.99722222222
1658.71111111111
1659.45
1660.19444444444
1660.90277777778
1661.62777777778
1662.38333333333
1663.09166666667
1663.80277777778
1664.50555555556
1665.18888888889
1665.84166666667
1666.53333333333
1667.26111111111
1668.00833333333
1668.71944444444
1669.475
1670.20277777778
1670.93611111111
1671.66388888889
1672.4
1673.13888888889
1673.91666666667
1674.70277777778
1675.49722222222
1676.26388888889
1677.00555555556
1677.74722222222
1678.54722222222
1679.34444444444
1680.12222222222
1680.96666666667
1681.83055555556
1682.60277777778
1683.35555555556
1684.14722222222
1684.96388888889
1685.77777777778
1686.60555555556
1687.43055555556
1688.23888888889
1689.00833333333
1689.74722222222
1690.48888888889
1691.25833333333
1692.04444444444
1692.84722222222
1693.65277777778
1694.40833333333
1695.17222222222
1695.95555555556
1696.73055555556
1697.52222222222
1698.33055555556
1699.15277777778
1699.96111111111
1700.73055555556
1701.49722222222
1702.275
1703.07777777778
1703.88611111111
1704.70277777778
1705.50833333333
1706.275
1707.05277777778
1707.82222222222
1708.58055555556
1709.36111111111
1710.21111111111
1711.02222222222
1711.80555555556
1712.57222222222
1713.34166666667
1714.12777777778
1714.90555555556
1715.70833333333
1716.525
1717.35555555556
1718.13333333333
1718.9
1719.66944444444
1720.45
1721.25833333333
1722.08611111111
1722.91388888889
1723.725
1724.51666666667
1725.28333333333
1726.05277777778
1726.83611111111
1727.62222222222
1728.46388888889
1729.28055555556
1730.06388888889
1730.80277777778
1731.575
1732.32777777778
1733.10277777778
1733.86388888889
1734.67222222222
1735.45833333333
1736.24444444444
1736.96944444444
1737.71944444444
1738.48055555556
1739.27222222222
1740.075
1740.875
1741.66666666667
1742.44722222222
1743.20833333333
1743.96388888889
1744.73055555556
1745.53055555556
1746.35555555556
1747.16944444444
1747.69722222222
1748.59444444444
1749.33611111111
1750.075
1750.80277777778
1751.55833333333
1752.32222222222
1753.08333333333
1753.825
1754.54444444444
1755.27222222222
1755.98888888889
1756.70555555556
1757.46666666667
1758.21666666667
1758.96944444444
1759.71666666667
1760.46666666667
1761.18888888889
1761.89722222222
1762.625
1763.40555555556
1764.18611111111
1764.98333333333
1765.78888888889
1766.57222222222
1767.32777777778
1768.11111111111
1768.91944444444
1769.73611111111
1770.55277777778
1771.4
1772.21388888889
1773.00555555556
1773.77777777778
1774.57222222222
1775.38888888889
1776.23888888889
1777.06666666667
1777.88611111111
1778.69166666667
1779.48611111111
1780.27777777778
1781.05
1781.88611111111
1782.71388888889
1783.51388888889
1784.26944444444
1785.03888888889
1785.79722222222
1786.56666666667
1787.33055555556
1788.11388888889
1788.90277777778
1789.68333333333
1790.40833333333
1791.13055555556
1791.84166666667
1792.55555555556
1793.28055555556
1794.06388888889
1794.81111111111
1795.53611111111
1796.27222222222
1796.98888888889
1797.68888888889
1798.37222222222
1799.08888888889
1799.81666666667
1800.56388888889
1801.325
1802.03611111111
1802.71666666667
1803.42222222222
1804.12222222222
1804.81666666667
1805.53055555556
